Wheel Speed,RPM,Gear,Angle,Throttle,Braking,Clutch,Temp,X,Y
7.576886,0.3992452,1,-1.167629,0,0,0.7984903,43.0485,-1610.92,3168.283
7.556858,0.3867534,1,-0.9614981,0,0,0.7735068,43.13793,-1611.042,3168.371
7.496608,0.3700414,1,-0.8210886,0,0,0.7400829,43.21177,-1611.143,3168.443
7.45515,0.3542691,1,-0.7078578,0,0,0.7085383,43.28141,-1611.238,3168.511
7.436628,0.3382111,1,-0.6084173,0,0,0.6764222,43.35225,-1611.334,3168.58
7.400726,0.3223757,1,-0.5240868,0,0,0.6447514,43.42204,-1611.428,3168.647
7.37044,0.3062973,1,-0.4502889,0,0,0.6125946,43.49284,-1611.523,3168.716
7.33799,0.2905578,1,-0.3881835,0,0,0.5811156,43.5621,-1611.616,3168.782
7.305091,0.2745861,1,-0.3330251,0,0,0.5491722,43.63336,-1611.712,3168.851
7.273325,0.2590382,1,-0.2864904,0,0,0.5180763,43.70333,-1611.805,3168.918
7.240072,0.2443159,1,-0.2459984,0,0,0.4886318,43.77401,-1611.899,3168.985
7.211089,0.2305065,1,-0.2110249,0,0,0.461013,43.84501,-1611.993,3169.053
7.182481,0.2173947,1,-0.1812531,0,0,0.4347895,43.91537,-1612.086,3169.12
7.155697,0.2060598,1,-0.1540286,0,0,0.4121197,43.99017,-1612.184,3169.19
7.116471,0.2,1,-0.131607,0,0,0.4,44.06256,-1612.279,3169.259
7.102188,0.2,1,-0.1124553,0,0,0.4,44.13482,-1612.373,3169.326
7.078483,0.2,1,-0.09421437,0,0,0.4,44.21525,-1612.478,3169.402
7.032118,0.2,1,-0.08127479,0,0,0.4,44.28325,-1612.566,3169.465
7.015334,0.2,1,-0.06993794,0,0,0.4,44.35221,-1612.655,3169.529
6.987947,0.2,1,-0.05924442,0,0,0.4,44.4277,-1612.752,3169.599
6.939046,0.2,1,-0.05096807,0,0,0.4,44.49657,-1612.84,3169.662
6.921861,0.2,1,-0.04293203,0,0,0.4,44.5742,-1612.94,3169.733
6.869953,0.2,1,-0.0363978,0,0,0.4,44.64902,-1613.035,3169.802
6.834422,0.2,1,-0.03126938,0,0,0.4,44.71819,-1613.123,3169.865
6.817307,0.2,1,-0.0262988,0,0,0.4,44.79611,-1613.221,3169.937
6.765125,0.2,1,-0.02253469,0,0,0.4,44.86617,-1613.309,3170
6.744638,0.2,1,-0.01929328,0,0,0.4,44.93647,-1613.397,3170.064
6.708262,0.2,1,-0.01625308,0,0,0.4,45.01339,-1613.493,3170.134
6.64958,0.2,1,-0.0138634,0,0,0.4,45.08505,-1613.582,3170.199
6.629135,0.2,1,-0.01151761,0,0,0.4,45.1674,-1613.684,3170.273
6.572771,0.2,1,-0.5943276,0,0,0.4,45.23751,-1613.771,3170.336
6.553801,0.2,1,-1.954834,0,0,0.4,45.30643,-1613.855,3170.397
6.522926,0.2,1,-3.68235,0,0,0.4,45.37516,-1613.939,3170.459
6.502837,0.2,1,-5.739344,0,0,0.4,45.45189,-1614.032,3170.528
6.481877,0.2,1,-7.374826,0,0,0.4,45.5198,-1614.113,3170.59
6.475027,0.2,1,-9.184737,0,0,0.4,45.59861,-1614.207,3170.662
6.461331,0.2,1,-10.49081,0,0,0.4,45.66649,-1614.286,3170.724
6.456269,0.2,1,-11.7518,0,0,0.4,45.74267,-1614.373,3170.795
6.447105,0.2,1,-12.71178,0,0,0.4,45.81147,-1614.451,3170.86
6.442914,0.2,1,-13.62732,0,0,0.4,45.88794,-1614.536,3170.932
6.442705,0.2,1,-13.80066,0,0,0.4,45.95562,-1614.61,3170.996
6.444964,0.2,1,-11.88003,0,0,0.4,46.02445,-1614.685,3171.063
6.457291,0.2,1,-9.990481,0,0,0.4,46.10044,-1614.766,3171.135
6.44581,0.2,1,-8.554936,0,0,0.4,46.16899,-1614.839,3171.201
6.438344,0.2,1,-7.152112,0,0,0.4,46.24712,-1614.921,3171.277
6.395343,0.2,1,-6.116286,0,0,0.4,46.31601,-1614.994,3171.343
6.377341,0.2,1,-5.172254,0,0,0.4,46.38932,-1615.07,3171.413
6.32268,0.2,1,-4.431046,0,0,0.4,46.45729,-1615.141,3171.478
6.302361,0.2,1,-3.707048,0,0,0.4,46.53469,-1615.222,3171.552
6.241381,0.2,1,-3.128213,0,0,0.4,46.60854,-1615.298,3171.622
6.201577,0.2,1,-2.677249,0,0,0.4,46.67661,-1615.368,3171.686
6.18206,0.2,1,-2.239465,0,0,0.4,46.75373,-1615.447,3171.759
6.12609,0.2,1,-1.878361,0,0,0.4,46.82966,-1615.525,3171.831
6.08726,0.2,1,-1.608872,0,0,0.4,46.89711,-1615.594,3171.894
6.067469,0.2,1,-1.349729,0,0,0.4,46.97273,-1615.671,3171.964
6.011014,0.2,1,-1.134161,0,0,0.4,47.0476,-1615.747,3172.034
5.970007,0.2,1,-0.9612709,0,0,0.4,47.11896,-1615.819,3172.1
5.931623,0.2,1,-0.8204983,0,0,0.4,47.18741,-1615.888,3172.163
5.91231,0.2,1,-1.049023,0,0,0.4,47.262,-1615.963,3172.231
5.853312,0.2,1,-1.803913,0,0,0.4,47.33526,-1616.036,3172.299
5.817305,0.2,1,-2.450731,0,0,0.4,47.40963,-1616.11,3172.367
5.78453,0.2,1,-3.233946,0,0,0.4,47.48481,-1616.184,3172.436
5.754175,0.2,1,-4.037204,0,0,0.4,47.56282,-1616.26,3172.507
5.724284,0.2,1,-4.710956,0.07973858,0,0.4,47.6293,-1616.324,3172.568
5.731901,0.2158486,1,-5.855283,0.8431373,0,0.431634,47.69563,-1616.389,3172.631
5.784347,0.2341188,1,-7.281691,1,0,0.4681014,47.77193,-1616.463,3172.704
5.92488,0.2508265,1,-8.7495,1,0,0.5014502,47.84151,-1616.532,3172.772
6.041698,0.2694475,1,-10.25765,1,0,0.5386178,47.91885,-1616.608,3172.851
6.170827,0.2871322,1,-11.44751,1,0,0.5739166,47.99205,-1616.681,3172.927
6.31325,0.3031691,1,-12.35312,1,0,0.6059264,48.05821,-1616.748,3172.999
6.389574,0.3198188,1,-11.59775,1,0,0.6391594,48.12668,-1616.818,3173.075
6.53591,0.3370059,1,-9.81491,1,0,0.673465,48.1971,-1616.891,3173.156
6.77195,0.3527734,1,-8.43445,1,0,0.704937,48.26143,-1616.959,3173.232
6.875991,0.3707682,1,-7.083895,1,0,0.7408548,48.33457,-1617.039,3173.321
7.143042,0.3886072,1,-5.962739,1,0,0.7764616,48.40675,-1617.119,3173.411
7.380681,0.4044815,1,-5.125458,1,0,0.8081468,48.47069,-1617.193,3173.493
7.648131,0.4223472,1,-3.735897,1,0,0.8438067,48.54235,-1617.277,3173.587
7.88574,0.4382195,1,-1.945175,1,0,0.8754879,48.60572,-1617.354,3173.673
8.032193,0.4548183,1,1.339101,1,0,0.9086193,48.67171,-1617.437,3173.764
8.182797,0.4726495,1,5.58012,1,0,0.9442105,48.74229,-1617.528,3173.863
8.387562,0.4912375,1,10.23433,1,0,0.9813123,48.81553,-1617.627,3173.967
8.506804,0.4926638,1,13.9498,1,0,0.9853277,48.88519,-1617.723,3174.067
8.609211,0.5001529,1,16.74535,1,0,1,48.94707,-1617.812,3174.156
8.831319,0.5055771,1,19.41758,1,0,1,49.01556,-1617.912,3174.256
9.082318,0.5177279,1,20.67085,1,0,1,49.08558,-1618.017,3174.359
9.337111,0.5281481,1,19.87073,1,0,1,49.15134,-1618.119,3174.457
9.590979,0.540969,1,16.97394,1,0,1,49.21663,-1618.223,3174.555
9.849671,0.5550202,1,14.37025,1,0,1,49.28522,-1618.335,3174.659
10.10933,0.5694517,1,12.23876,1,0,1,49.35144,-1618.446,3174.761
10.38062,0.5834582,1,10.34774,1,0,1,49.42032,-1618.565,3174.869
10.63004,0.5976902,1,8.882486,1,0,1,49.48333,-1618.677,3174.97
10.91125,0.6084319,1,7.442605,1,0,1,49.55536,-1618.808,3175.088
11.16157,0.6251531,1,6.391799,1,0,1,49.61798,-1618.924,3175.193
11.40922,0.6381453,1,5.501751,1,0,1,49.67964,-1619.042,3175.298
11.68765,0.6481221,1,4.607934,1,0,1,49.75147,-1619.181,3175.424
11.94543,0.6643508,1,3.464867,1,0,1,49.81501,-1619.307,3175.537
12.20822,0.6770942,1,1.311443,1,0,1,49.87946,-1619.437,3175.655
12.45277,0.6894034,1,-2.084082,1,0,1,49.94757,-1619.576,3175.783
12.70595,0.7017603,1,-5.927532,1,0,1,50.01135,-1619.709,3175.906
12.93855,0.7127823,1,-9.98116,1,0,1,50.07559,-1619.844,3176.033
13.17216,0.7227333,1,-13.71076,1,0,1,50.1427,-1619.986,3176.17
13.42249,0.7327244,1,-16.72232,1,0,1,50.20659,-1620.123,3176.304
13.66785,0.7425815,1,-19.19628,1,0,1,50.26797,-1620.255,3176.435
13.90956,0.7524855,1,-21.53984,1,0,1,50.33554,-1620.402,3176.582
14.16797,0.7633786,1,-23.33572,1,0,1,50.39672,-1620.535,3176.718
14.43252,0.7739412,1,-24.92119,1,0,1,50.45948,-1620.673,3176.861
14.69413,0.7847514,1,-26.33533,1,0,1,50.52482,-1620.817,3177.012
14.97009,0.7962292,1,-27.53668,1,0,1,50.59008,-1620.962,3177.167
15.22688,0.807968,1,-28.47465,1,0,1,50.64997,-1621.095,3177.312
15.49704,0.8191351,1,-29.32294,1,0,1,50.71276,-1621.236,3177.466
15.77739,0.8307108,1,-30.07834,1,0,1,50.7781,-1621.383,3177.63
16.03462,0.8429355,1,-30.66112,1,0,1,50.83741,-1621.517,3177.781
16.31822,0.8544304,1,-31.27612,1,0,1,50.90992,-1621.681,3177.971
16.63273,0.867897,1,-31.84986,1,0,1,50.99116,-1621.866,3178.188
16.86781,0.8832054,1,-32.15667,1,0,1,51.04465,-1621.988,3178.334
17.11233,0.8926675,1,-32.43529,1,0,1,51.10009,-1622.115,3178.489
17.35044,0.9031957,1,-32.67086,1,0,1,51.15388,-1622.239,3178.641
17.60307,0.913622,1,-32.8888,1,0,1,51.21076,-1622.37,3178.804
17.85436,0.9261479,1,-33.07618,1,0,1,51.26712,-1622.5,3178.969
17.88242,0.9330874,1,-33.25851,1,0,1,51.33025,-1622.646,3179.157
17.87855,0.9393105,1,-33.3992,1,0,1,51.38738,-1622.778,3179.331
17.87418,0.942613,1,-33.52334,1,0,1,51.44556,-1622.913,3179.51
17.87114,0.945553,1,-33.63708,1,0,1,51.5073,-1623.056,3179.704
17.87155,0.9484254,1,-33.72925,1,0,1,51.5658,-1623.192,3179.892
17.87584,0.9512413,1,-33.80658,1,0,1,51.62272,-1623.323,3180.078
17.88128,0.9538966,1,-33.87671,1,0,1,51.68233,-1623.461,3180.275
17.88716,0.9379662,1,-33.92914,0,0,0.1,51.7342,-1623.578,3180.45
17.63007,0.9207928,2,-33.97872,0,0,0.1342784,51.79012,-1623.702,3180.639
17.37941,0.9040487,2,-34.02065,0,0.07973858,0.1676996,51.84464,-1623.819,3180.824
17.11766,0.8865637,2,-34.05878,0,1,0.1,51.90158,-1623.938,3181.017
16.88061,0.8707289,1,-34.0887,0,1,0.1316064,51.95329,-1624.043,3181.19
16.64277,0.8548412,1,-34.11508,0,1,0.1633184,52.00528,-1624.146,3181.362
16.40521,0.8389724,1,-34.13822,0,1,0.1949926,52.05734,-1624.246,3181.533
16.15913,0.8225338,1,-34.15926,0,1,0.2278042,52.11141,-1624.347,3181.709
15.90098,0.8052894,1,-34.17852,0,1,0.2622242,52.16827,-1624.452,3181.892
15.66671,0.7896402,1,-34.19366,0,0.7699347,0.29346,52.22,-1624.544,3182.057
15.42904,0.773764,1,-34.20715,0,0.2627451,0.3251492,52.2726,-1624.634,3182.224
15.19165,0.7579061,1,-34.21894,0,0,0.3568016,52.32519,-1624.721,3182.391
14.94052,0.7411305,1,-34.22984,0,0,0.3902858,52.38083,-1624.811,3182.569
14.70564,0.7254407,1,-34.23868,0,0,0.4216026,52.43288,-1624.892,3182.736
14.46761,0.70954,1,-34.24651,0,0,0.4533406,52.48565,-1624.97,3182.905
14.22631,0.6934212,1,-34.25346,0,0,0.4855138,52.53915,-1625.046,3183.076
13.98878,0.6775548,1,-34.25941,0,0,0.5171834,52.59183,-1625.118,3183.246
13.74798,0.6614693,1,-34.26468,0,0,0.5492902,52.64525,-1625.188,3183.417
13.50891,0.6454991,1,-34.26924,0,0,0.5811669,52.6983,-1625.255,3183.588
13.26874,0.6294561,1,-34.27324,0,0,0.6131889,52.75161,-1625.319,3183.759
13.02943,0.6134696,1,-34.2767,0,0,0.6450981,52.80475,-1625.38,3183.93
12.79063,0.597518,1,-34.27972,0,0,0.6769377,52.8578,-1625.439,3184.1
12.54904,0.5813801,1,-34.28238,0,0,0.7091491,52.91148,-1625.496,3184.272
12.31162,0.5655202,1,-34.28466,0,0,0.7408055,52.96425,-1625.549,3184.441
12.07365,0.5496241,1,-34.28665,0,0,0.7725343,53.01716,-1625.601,3184.611
11.88147,0.5337979,1,-34.28837,0,0,0.8041235,53.06985,-1625.65,3184.779
11.78514,0.5460885,1,-34.28988,0,0,0.8357777,53.12266,-1625.698,3184.947
11.68785,0.5619705,1,-34.29119,0,0,0.8674785,53.17556,-1625.743,3185.116
11.58891,0.5779419,1,-34.29235,0,0,0.8993575,53.22877,-1625.786,3185.285
11.49349,0.5939775,1,-34.29335,0,0,0.9313647,53.2822,-1625.827,3185.455
11.40026,0.6099766,1,-34.29423,0,0,0.9632991,53.33551,-1625.866,3185.624
11.30956,0.6257947,1,-34.29498,0,0,0.9950029,53.38845,-1625.903,3185.791
11.22272,0.6245486,1,-34.29564,0,0,1,53.44185,-1625.937,3185.959
11.13798,0.6202407,1,-34.29623,0,0,1,53.49629,-1625.97,3186.13
11.05927,0.6161633,1,-34.29672,0,0,1,53.5486,-1625.999,3186.294
10.98159,0.6120066,1,-34.29715,0,0,1,53.60147,-1626.026,3186.459
10.89917,0.6077518,1,-34.29753,0,0,1,53.65496,-1626.051,3186.626
10.80497,0.6034466,1,-34.29786,0,0,1,53.70826,-1626.074,3186.791
10.76357,0.6000777,1,-34.29814,0,0,1,53.76149,-1626.095,3186.956
10.70519,0.596428,1,-34.29839,0,0,1,53.8149,-1626.115,3187.121
10.64771,0.5905752,1,-34.2986,0,0,1,53.86837,-1626.132,3187.285
10.59051,0.587866,1,-34.29878,0,0,1,53.9207,-1626.148,3187.446
10.5407,0.5845125,1,-34.29895,0,0,1,53.97387,-1626.161,3187.608
10.49923,0.5810621,1,-34.29908,0,0,1,54.02663,-1626.173,3187.768
10.44904,0.5780325,1,-34.29921,0,0,1,54.07949,-1626.183,3187.928
10.41478,0.5751785,1,-34.29931,0,0,1,54.13244,-1626.19,3188.087
10.38668,0.5726037,1,-34.2994,0,0,1,54.18551,-1626.196,3188.246
10.35764,0.5697851,1,-34.29948,0,0,1,54.23863,-1626.199,3188.404
10.31664,0.5661164,1,-34.29955,0,0,1,54.29204,-1626.2,3188.561
10.22652,0.5615538,1,-34.29961,0,0,1,54.34517,-1626.199,3188.717
10.22459,0.5584245,1,-34.29966,0,0,1,54.39819,-1626.195,3188.871
10.17037,0.5540298,1,-34.29971,0,0,1,54.45154,-1626.19,3189.025
10.11067,0.5494507,1,-34.29974,0,0,1,54.50434,-1626.182,3189.177
10.04671,0.54467,1,-34.29978,0,0,1,54.55747,-1626.172,3189.328
9.979298,0.5397497,1,-34.29981,0,0,1,54.61069,-1626.161,3189.478
9.909552,0.53475,1,-34.29984,0,0,1,54.66422,-1626.146,3189.627
9.836543,0.5296044,1,-34.29986,0,0,1,54.71691,-1626.131,3189.772
9.749,0.52404,1,-34.29987,0,0,1,54.77029,-1626.113,3189.918
9.664464,0.5187035,1,-34.29989,0,0,1,54.82444,-1626.093,3190.065
9.586218,0.5132908,1,-34.2999,0,0,1,54.87648,-1626.072,3190.205
9.501486,0.5075509,1,-34.29992,0,0,1,54.9298,-1626.049,3190.346
9.41589,0.5017745,1,-34.29993,0,0,1,54.98439,-1626.024,3190.49
9.32692,0.4957751,1,-34.29994,0,0,0.9915503,55.03796,-1625.997,3190.629
9.23418,0.48949,1,-34.29995,0,0,0.97898,55.09115,-1625.969,3190.765
9.138629,0.4831813,1,-34.29995,0,0,0.9663625,55.14464,-1625.94,3190.901
9.039998,0.475939,1,-34.29996,0,0,0.951878,55.19821,-1625.909,3191.036
8.959678,0.4630311,1,-34.29996,0,0,0.9260623,55.25179,-1625.877,3191.169
8.840381,0.4474381,1,-34.29997,0,0,0.8948762,55.30447,-1625.844,3191.298
8.737229,0.4316016,1,-34.29997,0,0,0.8632032,55.35802,-1625.808,3191.428
8.639117,0.4157886,1,-34.29998,0,0,0.8315771,55.41151,-1625.772,3191.556
8.539574,0.3999029,1,-34.29998,0,0,0.7998059,55.46529,-1625.734,3191.683
8.454678,0.3839735,1,-34.29998,0,0,0.7679471,55.51926,-1625.695,3191.808
8.349505,0.3681088,1,-34.29998,0,0,0.7362176,55.57304,-1625.654,3191.932
8.263495,0.3522754,1,-34.29998,0,0,0.7045507,55.62676,-1625.613,3192.053
8.179964,0.3363805,1,-34.29999,0,0,0.6727609,55.68072,-1625.57,3192.174
8.098375,0.3181652,1,-34.29999,0,0,0.6363304,55.74261,-1625.52,3192.31
7.968107,0.3047387,1,-34.29999,0,0,0.6094773,55.78826,-1625.483,3192.409
7.920691,0.2888685,1,-34.29999,0,0,0.577737,55.84226,-1625.437,3192.525
7.849586,0.2729669,1,-34.29999,0,0,0.5459337,55.89642,-1625.39,3192.639
7.764713,0.2570446,1,-33.48835,0,0,0.5140892,55.95069,-1625.343,3192.751
7.678552,0.2413368,1,-30.74373,0,0,0.4826737,56.00427,-1625.295,3192.86
7.598115,0.2254895,1,-26.41828,0,0,0.450979,56.05836,-1625.245,3192.967
7.512786,0.2096084,1,-22.68746,0,0,0.4192168,56.11261,-1625.194,3193.073
7.420608,0.2,1,-18.81242,0,0,0.4,56.17815,-1625.13,3193.198
7.270702,0.2,1,-16.60002,0,0,0.4,56.22322,-1625.086,3193.282
7.21417,0.2,1,-14.25276,0,0,0.4,56.27736,-1625.03,3193.38
7.185672,0.2,1,-12.22294,0,0,0.4,56.33183,-1624.973,3193.475
7.164454,0.2,1,-10.49218,0,0,0.4,56.38593,-1624.915,3193.568
7.102801,0.2,1,-8.997518,0,0,0.4,56.44029,-1624.855,3193.658
7.043581,0.2,1,-7.717416,0,0,0.4,56.49453,-1624.794,3193.746
6.978209,0.2,1,-6.578544,0,0,0.4,56.55072,-1624.73,3193.835
6.908982,0.2,1,-5.611907,0,0,0.4,56.6066,-1624.665,3193.921
6.835883,0.2,1,-4.81271,0,0,0.4,56.6607,-1624.601,3194.002
6.763141,0.2,1,-4.113585,0,0,0.4,56.71582,-1624.536,3194.083
6.693519,0.2,1,-3.525748,0,0,0.4,56.76999,-1624.47,3194.16
6.622921,0.2,1,-3.022623,0,0,0.4,56.82401,-1624.404,3194.235
6.554438,0.2,1,-2.589201,0,0,0.4,56.87823,-1624.337,3194.308
6.486952,0.2,1,-2.218376,0,0,0.4,56.93233,-1624.27,3194.379
6.420622,0.2,1,-1.886888,0,0,0.4,56.98871,-1624.198,3194.451
6.354887,0.2,1,-1.616835,0,0,0.4,57.04264,-1624.13,3194.518
6.29245,0.2,1,-1.384668,0,0,0.4,57.09669,-1624.06,3194.583
6.241117,0.2,1,-1.180353,0,0,0.4,57.15216,-1623.989,3194.648
6.187136,0.2,1,-1.009255,0,0,0.4,57.20659,-1623.918,3194.709
6.132262,0.2,1,-0.8635967,0,0,0.4,57.26072,-1623.847,3194.769
6.077215,0.2,1,-0.7389027,0,0,0.4,57.3148,-1623.775,3194.827
6.02125,0.2,1,-0.6297423,0,0,0.4,57.37007,-1623.702,3194.884
5.964228,0.2,1,-0.5517989,0,0,0.4,57.42403,-1623.63,3194.938
5.905009,0.2,1,-1.530029,0,0,0.4,57.4782,-1623.558,3194.99
5.837675,0.2,1,-3.279678,0,0,0.4,57.53308,-1623.484,3195.041
5.78193,0.2,1,-5.585005,0,0,0.4,57.58707,-1623.411,3195.088
5.721261,0.2,1,-8.231841,0,0,0.4,57.64093,-1623.337,3195.133
5.6531,0.2,1,-11.14255,0,0,0.4,57.69611,-1623.262,3195.176
5.57589,0.2,1,-13.81791,0,0,0.4,57.74981,-1623.188,3195.215
5.511891,0.2161613,1,-16.15237,0.7019609,0,0.432258,57.80452,-1623.111,3195.251
5.526768,0.2320195,1,-18.20814,1,0,0.4639112,57.85811,-1623.035,3195.284
5.603536,0.2478956,1,-19.96699,1,0,0.4956,57.91164,-1622.957,3195.315
5.656742,0.2637044,1,-21.56737,1,0,0.5271546,57.96482,-1622.878,3195.342
5.703747,0.2796381,1,-22.9467,1,0,0.5589582,58.0183,-1622.798,3195.366
5.74981,0.2961615,1,-23.7345,1,0,0.5919392,58.07363,-1622.713,3195.388
5.797509,0.3120445,1,-23.80429,1,0,0.6236418,58.12667,-1622.631,3195.406
5.851103,0.3278292,1,-22.98445,1,0,0.6551482,58.17925,-1622.547,3195.42
5.913469,0.3437664,1,-21.07665,1,0,0.6869588,58.23219,-1622.462,3195.432
5.984353,0.3601695,1,-18.97071,1,0,0.7196996,58.28652,-1622.372,3195.443
6.067233,0.3761195,1,-17.17851,1,0,0.751536,58.33916,-1622.283,3195.45
6.161505,0.3918915,1,-15.45959,1,0,0.783017,58.39103,-1622.193,3195.457
6.262456,0.4080161,1,-13.484,1,0,0.8152018,58.44386,-1622.099,3195.461
6.373157,0.4240179,1,-11.81247,1,0,0.8471416,58.49606,-1622.004,3195.464
6.455248,0.4398763,1,-10.39802,1,0,0.878795,58.54758,-1621.908,3195.467
6.691625,0.4362593,1,-9.169127,1,0,0.8725186,58.59967,-1621.808,3195.469
6.931614,0.4512354,1,-8.125366,1,0,0.9024708,58.65128,-1621.706,3195.47
7.146095,0.4423131,1,-8.262156,1,0,0.8846263,58.70207,-1621.603,3195.471
7.290703,0.458412,1,-9.361309,1,0,0.9167597,58.75341,-1621.497,3195.472
7.442356,0.4525675,1,-11.05066,1,0,0.905135,58.80387,-1621.389,3195.472
7.605837,0.4686524,1,-13.4894,1,0,0.9372407,58.85468,-1621.278,3195.47
7.770689,0.4608471,1,-15.99933,1,0,0.9216942,58.90453,-1621.167,3195.466
7.954016,0.4767251,1,-18.25639,1,0,0.9533868,58.95422,-1621.053,3195.461
8.122309,0.4716385,1,-20.19078,1,0,0.9432771,59.00363,-1620.937,3195.454
8.288778,0.4864752,1,-22.10463,1,0,0.9729504,59.05288,-1620.82,3195.445
8.452063,0.4827383,1,-23.82663,1,0,0.9654766,59.10274,-1620.699,3195.433
8.613377,0.4934768,1,-25.28815,1,0,0.9869537,59.15191,-1620.577,3195.419
8.773791,0.5015082,1,-26.52983,1,0,1,59.20036,-1620.455,3195.404
8.929518,0.5104416,1,-27.61873,1,0,1,59.24954,-1620.329,3195.385
9.076855,0.5191434,1,-28.54529,1,0,1,59.29811,-1620.204,3195.365
9.221912,0.5277882,1,-29.33908,1,0,1,59.34633,-1620.077,3195.343
9.357499,0.5360411,1,-30.02729,1,0,1,59.39473,-1619.949,3195.317
9.56694,0.5443077,1,-30.61932,1,0,1,59.44298,-1619.819,3195.29
9.786173,0.5526649,1,-31.1174,1,0,1,59.49001,-1619.691,3195.26
10.00137,0.5610301,1,-31.55094,1,0,1,59.53726,-1619.561,3195.229
10.21905,0.569286,1,-31.93408,1,0,1,59.58551,-1619.427,3195.193
10.44308,0.5775729,1,-32.25517,1,0,1,59.6324,-1619.296,3195.157
10.6622,0.5859489,1,-32.53634,1,0,1,59.67982,-1619.162,3195.117
10.88443,0.5943034,1,-32.77551,1,0,1,59.72649,-1619.028,3195.076
11.10267,0.6019075,1,-32.9814,1,0,1,59.77288,-1618.895,3195.032
11.31959,0.6096003,1,-33.15924,1,0,1,59.81912,-1618.76,3194.986
11.53745,0.6173229,1,-33.31269,1,0,1,59.86515,-1618.626,3194.937
11.7569,0.6249464,1,-33.44537,1,0,1,59.91105,-1618.491,3194.885
11.97913,0.6335233,1,-33.56222,0.8222223,0,1,59.95765,-1618.352,3194.829
12.16764,0.6416313,1,-33.6611,0.2104576,0,1,60.00324,-1618.216,3194.772
12.21577,0.6453183,1,-33.74654,0,0,1,60.04865,-1618.082,3194.712
11.97295,0.6290983,1,-33.8223,0,0,1,60.09509,-1617.947,3194.648
11.73344,0.613099,1,-33.88687,0,0,1,60.14091,-1617.816,3194.583
11.49588,0.5972295,1,-33.94233,0,0,1,60.18636,-1617.689,3194.517
11.25378,0.5810575,1,-33.99131,0,0,1,60.2327,-1617.561,3194.446
11.01714,0.56525,1,-34.03267,0,0,1,60.278,-1617.438,3194.375
10.77869,0.5493215,1,-34.06881,0,0,1,60.32365,-1617.317,3194.302
10.5415,0.5444445,1,-34.09994,0,0,1,60.36908,-1617.198,3194.228
10.30343,0.5405148,1,-34.127,0,0,1,60.41467,-1617.081,3194.152
10.05495,0.5374672,1,-34.15145,0,0,1,60.46228,-1616.962,3194.07
9.819466,0.5340031,1,-34.17138,0,0,1,60.5074,-1616.85,3193.991
